Time,Voltage,Current
0.0,0.0,0.0
2e-07,0.0,0.0
4e-07,0.0,0.0
6e-07,0.0,0.0
8e-07,0.0,0.0
1e-06,0.0,0.0
2e-06,0.0,0.0
3e-06,0.0,0.0
4e-06,0.0,0.0
4.166666666666596e-06,0.0,0.0
4.166666666666738e-06,0.0,0.0
4.167968750000071e-06,0.00042250594206202864,8.928531504452557e-05
4.1692708333334045e-06,0.0008004570219861864,0.0001785698862161376
4.170572916666738e-06,0.001138497054475786,0.00026785379058625165
4.171875000000071e-06,0.0014408808139814904,0.0003571370987692493
4.173177083333405e-06,0.0017114740347013127,0.00044641987492247733
4.174479166666738e-06,0.0019537036177850815,0.0005357021759198208
4.1757812500000714e-06,0.0021704926828176865,0.0006249840502737293
4.177083333333405e-06,0.002364492901603476,0.0007142655419913406
4.178385416666738e-06,0.0025381337994711058,0.0008035466913927521
4.179687500000072e-06,0.002693622755273531,0.000892827535111019
4.18186425957162e-06,0.0029185481124153214,0.0010420823152231368
4.184041019143169e-06,0.003105728820785694,0.001191336456525288
4.186217778714717e-06,0.00326112858989118,0.0013405900579825368
4.188394538286266e-06,0.00339024016991335,0.0014898432107432742
4.190571297857814e-06,0.0034980853517088233,0.0016390959981392185
4.192941018198913e-06,0.0035959721706533623,0.0018015790922690708
4.195310738540012e-06,0.0036765947538474654,0.0019640618851224497
4.197680458881111e-06,0.0037428274006059267,0.002126544424383586
4.200050179222211e-06,0.003797358297245041,0.002289026754647729
4.20241989956331e-06,0.003842689517082599,0.0024515089174211462
4.2052609895108244e-06,0.0038876435444300805,0.0026463108168322223
4.20810207945834e-06,0.003923976121706474,0.0028411125518079837
4.210943169405854e-06,0.003953232136433558,0.0030359141479524084
4.2137842593533686e-06,0.003976965147355686,0.003230715631013394
4.216625349300884e-06,0.003996737384439779,0.003425517026882758
4.22006033326412e-06,0.00401693621747037,0.00366103910709286
4.223495317227355e-06,0.004033582715974288,0.0038965610968641953
4.226930301190591e-06,0.004047289100171759,0.004132083006292518
4.230365285153826e-06,0.004058810960617689,0.004367604847853149
4.233800269117062e-06,0.0040690472582016225,0.004603126636400979
4.238108569162653e-06,0.004080918112262855,0.004898527818430652
4.242416869208246e-06,0.004091579393116079,0.005193928930322426
4.246725169253838e-06,0.004101135516001907,0.005489329973680139
4.25103346929943e-06,0.004109919154667692,0.005784730953896114
4.255341769345022e-06,0.004118491241367508,0.006080131880151162
4.260969235944267e-06,0.004129819676948331,0.00646598210168069
4.266596702543512e-06,0.00414082976946261,0.006851832231344162
4.2722241691427575e-06,0.004151397652479495,0.00723768226679787
4.277851635742003e-06,0.004161675164077026,0.007623532210274071
4.283479102341248e-06,0.004172089846842086,0.00800938206858099
4.29114605288508e-06,0.004186846677012981,0.008535069957967862
4.298813003428913e-06,0.0042015155144272814,0.009060757682316905
4.306479953972745e-06,0.004215768685466449,0.009586445235461727
4.314146904516577e-06,0.0042297623556395575,0.010112132619266405
4.321813855060409e-06,0.004244136529583213,0.010637819843625473
4.3317211692214944e-06,0.004264516131079123,0.011317118189280542
4.34162848338258e-06,0.0042845994120194325,0.01199641625044277
4.3515357975436655e-06,0.0043025363037321115,0.012675713994835584
4.3614431117047505e-06,0.004319111892911932,0.013355011433919036
4.371350425865836e-06,0.004337746421620381,0.01403430862288981
4.378950448869714e-06,0.0043549344213755364,0.014555405737177033
4.386550471873593e-06,0.0043714517443705775,0.015076502671408929
4.394150494877471e-06,0.004385793753893752,0.015597599399903753
4.4017505178813495e-06,0.004398685259434765,0.016118695933982668
4.409350540885228e-06,0.004413080516684834,0.01663979232196973
4.416950563889106e-06,0.004430449231886124,0.01716088858754944
4.4245505868929845e-06,0.004447194232042442,0.017681984670309594
4.432150609896863e-06,0.004461906908427057,0.018203080546162344
4.4397506329007415e-06,0.004475265812031212,0.01872417622566118
4.4473506559046196e-06,0.004490036653564053,0.0192452717540009
4.455616091720626e-06,0.004509702377258604,0.019811991168278333
4.463881527536632e-06,0.004528609406244444,0.02037871036170915
4.472146963352639e-06,0.004544391937813058,0.02094542929411584
4.480412399168644e-06,0.004558102199082051,0.02151214798205113
4.488677834984651e-06,0.004574210446995103,0.022078866498797978
4.497171423869453e-06,0.004596822909581355,0.02266122818042951
4.505665012754256e-06,0.004618074355573348,0.02324358961472307
4.514158601639058e-06,0.004633491568351938,0.02382595072644624
4.5226521905238606e-06,0.0046450317689737675,0.024408311547094788
4.531145779408664e-06,0.004661082616171264,0.02499067221489271
4.539070165715646e-06,0.004684847248373911,0.025534005598675014
4.546994552022628e-06,0.004706551688318766,0.02607733874838271
4.55491893832961e-06,0.004721031136959819,0.026620671577490852
4.5628433246365925e-06,0.004730662248829204,0.027164004124642597
4.570767710943575e-06,0.004745363132037522,0.027707336553649216
4.578004679121586e-06,0.004767212411894983,0.028203536391532294
4.585241647299597e-06,0.004787124164319118,0.028699736027260354
4.5924786154776085e-06,0.004801820166823456,0.02919593540581206
4.59971558365562e-06,0.004812996708678546,0.02969213455472976
4.606952551833632e-06,0.004827324590912202,0.0301883335841195
4.614153945321462e-06,0.004847519662966232,0.030682093380410003
4.621355338809291e-06,0.004866393002554592,0.031175852983408574
4.628556732297121e-06,0.004881730528724371,0.03166961235576484
4.635758125784951e-06,0.004894687565905331,0.032163371516051635
4.64295951927278e-06,0.004909788843909774,0.032657130538764956
4.650825368408038e-06,0.004931430574944495,0.033196447432583556
4.658691217543296e-06,0.00495194361340312,0.03373576409957414
4.666557066678554e-06,0.004968506297864689,0.034275080492119574
4.674422915813812e-06,0.004982426427684233,0.03481439663114082
4.682288764949071e-06,0.004999141262992779,0.035353712606096946
4.690796966087605e-06,0.005024828381958973,0.03593707084696768
4.699305167226139e-06,0.005048803016658637,0.036520428811278524
4.7078133683646725e-06,0.0050654705170053715,0.03710378640517978
4.716321569503206e-06,0.005077276579726175,0.03768714366827017
4.72482977064174e-06,0.005094707248361363,0.038270500773596824
4.733116699419288e-06,0.005124389636513793,0.03883868650841247
4.741403628196835e-06,0.005151071315007499,0.03940687195333876
4.749690556974383e-06,0.0051659611308876585,0.03997505696154817
4.757977485751931e-06,0.005172962291321415,0.04054324159690586
4.766264414529478e-06,0.005188672363597824,0.04111142613396965
4.773709647274889e-06,0.005217468246273588,0.04162190070557578
4.7811548800203e-06,0.0052427783139915585,0.04213237502190641
4.788600112765712e-06,0.00525796957279942,0.042642848972206014
4.7960453455111225e-06,0.005266326468975013,0.04315332261032225
4.803490578256533e-06,0.005281050889026084,0.04366379615470594
4.810483462902282e-06,0.0053056182249639205,0.0441432549846632
4.81747634754803e-06,0.005327736830771285,0.04462271359691888
4.824469232193779e-06,0.005343926883546762,0.045102171933165854
4.831462116839527e-06,0.005356107111210456,0.04558163002469862
4.838455001485275e-06,0.005371594792504014,0.04606108799241329
4.845872793463692e-06,0.005395167624165059,0.0465696790969439
4.853290585442108e-06,0.0054171307259968104,0.04707826997238792
4.860708377420524e-06,0.005434410025518949,0.04758686056706596
4.86812616939894e-06,0.005448535822026257,0.04809545090571898
4.8755439613773564e-06,0.005465642786588509,0.0486040410895083
4.88384037095806e-06,0.005492886502080269,0.04917287231078254
4.892136780538763e-06,0.005518309279945011,0.04974170324447276
4.900433190119466e-06,0.005536467433982062,0.05031053379930783
4.90872959970017e-06,0.005549776097340531,0.05087936401445215
4.917026009280874e-06,0.005568509222519502,0.05144819405950566
4.925614232383758e-06,0.005602270014983868,0.05203703179517438
4.934202455486642e-06,0.005632666134477771,0.052625869194248276
4.942790678589526e-06,0.005648623501473771,0.0532147060719062
4.95137890169241e-06,0.005654960786004748,0.05380354250710445
4.959967124795294e-06,0.005672389407663347,0.05439237884257676
4.967818307447825e-06,0.0057091555098628954,0.05493068139903763
4.975669490100357e-06,0.0057408917254622716,0.05546898363319342
4.983520672752888e-06,0.00575568124886966,0.05600728534647701
4.991371855405419e-06,0.0057590577011161215,0.056545586629952
4.999223038057951e-06,0.005774005129855098,0.05708388786431272
5.0062383499929705e-06,0.005805525104934706,0.05756487932780717
5.01325366192799e-06,0.0058328027890086065,0.05804587052716705
5.0202689738630106e-06,0.005849768880605455,0.05852686136110183
5.02728428579803e-06,0.005859748418215016,0.05900785188424206
5.03429959773305e-06,0.0058754607802884995,0.0594888423071394
5.041319512156053e-06,0.005901983597953686,0.059970148273263774
5.0483394265790555e-06,0.005926041432624596,0.06045145400171272
5.055359341002059e-06,0.005944063128439259,0.06093275943265727
5.062379255425061e-06,0.00595800257161655,0.06141406459796946
5.069399169848065e-06,0.0059753386904563,0.06189536962122237
5.077274291708031e-06,0.006003404523703848,0.06243530997132756
5.085149413567998e-06,0.006029519071033884,0.06297525003782938
5.093024535427964e-06,0.006048901819760588,0.06351518974059733
5.10089965728793e-06,0.006063765882652672,0.06405512911557655
5.108774779147896e-06,0.006083317997933935,0.06459506831478778
5.117441657727469e-06,0.006118560954269714,0.06518929238413917
5.126108536307043e-06,0.006150637904434153,0.06578351609181288
5.134775414886616e-06,0.00616881145938708,0.06637773925854829
5.143442293466189e-06,0.006177734730409057,0.06697196196052625
5.152109172045762e-06,0.006197451329101711,0.06756618452936904
5.1604524679422645e-06,0.006240957127736091,0.06813822158254419
5.168795763838768e-06,0.00627855034756275,0.0687102582462864
5.177139059735271e-06,0.006292718929488961,0.06928229422900678
5.185482355631774e-06,0.006291204256978045,0.06985432965825653
5.193825651528277e-06,0.006307001156048875,0.0704263650807269
5.20111919020514e-06,0.006348278235071003,0.07092642696483976
5.208412728882002e-06,0.006382948421091161,0.071426488513204
5.215706267558865e-06,0.006399660844250421,0.07192654953680067
5.222999806235728e-06,0.006404214182353374,0.07242661013124774
5.230293344912591e-06,0.006419556660867909,0.07292667067680011
5.237081754114779e-06,0.0064515163299112,0.07339209855779666
5.243870163316966e-06,0.006479424206529971,0.07385752617301679
5.250658572519154e-06,0.006498386651004273,0.07432295344073547
5.257446981721342e-06,0.006511283640393661,0.07478838040824909
5.2642353909235295e-06,0.0065287687685371965,0.07525380725187536
5.271589954981614e-06,0.006558020705939693,0.07575805074380411
5.278944519039698e-06,0.006584896465042844,0.0762622939602671
5.286299083097782e-06,0.00660508474106436,0.07676653682906777
5.293653647155866e-06,0.006620759368078544,0.07727077938564568
5.30100821121395e-06,0.006640579319015627,0.07777502177307646
5.309443644264988e-06,0.006675466908317607,0.07835337042705351
5.317879077316026e-06,0.006707583293566188,0.07893171872019905
5.326314510367064e-06,0.006728282127383967,0.07951006650804061
5.334749943418102e-06,0.006741360763615478,0.08008841385263815
5.34318537646914e-06,0.0067630602573268694,0.08066676102258401
5.3519312597665305e-06,0.00680963014389141,0.08126639323525044
5.360677143063921e-06,0.006850478506911395,0.08186602500928716
5.369423026361313e-06,0.006865895206847883,0.08246565601648173
5.378168909658704e-06,0.006864390466264081,0.0830652863970047
5.386914792956095e-06,0.006882694869825845,0.08366491675940968
5.394711896979807e-06,0.006934705775503758,0.08419949774657386
5.40250900100352e-06,0.006977971817917206,0.0847340783112635
5.410306105027231e-06,0.006992458128421419,0.08526865812019033
5.418103209050944e-06,0.006987534708991827,0.0858032373281088
5.425900313074656e-06,0.0070019764322233335,0.08633781657781604
5.432716342715495e-06,0.007043453750603834,0.08680513238423608
5.439532372356334e-06,0.007078190406848706,0.08727244786400563
5.446348401997173e-06,0.0070979102345692935,0.08773976287925289
5.453164431638012e-06,0.0071074377399332755,0.08820707750954239
5.459980461278851e-06,0.0071246981016646616,0.08867439205187505
5.466861853050662e-06,0.007156882081241989,0.08914618791931297
5.473743244822472e-06,0.007185653365903932,0.08961798350859579
5.480624636594282e-06,0.007206573641137304,0.09008977874553509
5.4875060283660925e-06,0.007222174879030485,0.09056157367163069
5.494387420137903e-06,0.00724195933827354,0.09103336844407071
5.5023248073407865e-06,0.007276103984752036,0.09157756317900231
5.510262194543669e-06,0.007307648739674544,0.0921217575724735
5.518199581746553e-06,0.007330079640969489,0.09266595151556546
5.526136968949436e-06,0.0073463895698764325,0.09321014505714781
5.534074356152319e-06,0.007369078250945571,0.09375433840387845
5.542941753607364e-06,0.00741466342205549,0.0943622939451639
5.551809151062409e-06,0.007455530339550265,0.09497024903069314
5.560676548517454e-06,0.00747470593244598,0.09557820337763695
5.569543945972499e-06,0.007479483172888102,0.09618615710591805
5.578411343427544e-06,0.007501421076152093,0.09679411073821097
5.586818885805313e-06,0.007561329592132793,0.0973705367506039
5.595226428183082e-06,0.007611690150363226,0.09794696226022573
5.60363397056085e-06,0.007623626707516595,0.09852338678685522
5.612041512938619e-06,0.007609845306756069,0.0990998105404234
5.620449055316387e-06,0.007624634077735115,0.09967623442101334
5.627591781656766e-06,0.007679836693300024,0.10016594253080835
5.634734507997145e-06,0.00772471747762532,0.10065565021744317
5.6418772343375235e-06,0.007743266423910322,0.10114535721460839
5.6490199606779025e-06,0.007743959454861726,0.10163506366239593
5.6561626870182815e-06,0.007759758422694274,0.10212477010729908
5.662764384944943e-06,0.007798633616536654,0.10257738373563403
5.669366082871604e-06,0.007831951004846904,0.1030299970541219
5.675967780798266e-06,0.00785396629331958,0.10348260996696013
5.682569478724927e-06,0.007868308546906455,0.10393522253391906
5.689171176651589e-06,0.007887980189816624,0.10438783497034188
5.6964919511476e-06,0.007922391150429697,0.10488974725169514
5.703812725643611e-06,0.007953840799037604,0.10539165921340513
5.711133500139623e-06,0.007977095338814078,0.1058935707679741
5.718454274635633e-06,0.007994812682789787,0.10639548195888568
5.725775049131645e-06,0.008017542453853777,0.10689739296060502
5.734375586762274e-06,0.00806015268498983,0.10748704421116463
5.742976124392903e-06,0.008099110865396275,0.10807669502327527
5.751576662023532e-06,0.008122366288531357,0.10866634519590479
5.7601771996541605e-06,0.008135159075873477,0.10925599481500292
5.76877773728479e-06,0.00816002017692219,0.10984564425350117
5.777688339531969e-06,0.008221328524296467,0.11045655178597306
5.7865989417791476e-06,0.008274106881587584,0.11106745876577429
5.795509544026326e-06,0.00828750540807699,0.1116783646797426
5.804420146273506e-06,0.008274759665188425,0.11228926974641633
5.813330748520685e-06,0.008293190616488144,0.11290017491603432
5.821069504445752e-06,0.008362936731790449,0.11343073960883429
5.82880826037082e-06,0.008419366677328122,0.11396130376636876
5.8365470162958875e-06,0.008432970551749519,0.11449186689810716
5.844285772220955e-06,0.008417662769962586,0.11502242923424721
5.852024528146023e-06,0.008430782063134523,0.11555299172571487
5.8586518457441905e-06,0.008482473341811514,0.11600735537483156
5.865279163342358e-06,0.008524755098462178,0.11646171863465457
5.871906480940526e-06,0.008547725275843465,0.11691608134036845
5.878533798538694e-06,0.008557574648391242,0.117370443594256
5.885161116136862e-06,0.008576586822219512,0.11782480576569829
5.891924674418379e-06,0.008613891450207523,0.11828850851501056
5.898688232699896e-06,0.008646992188917735,0.11875221094930052
5.905451790981413e-06,0.00867091267247555,0.11921591298547674
5.9122153492629305e-06,0.008688607353407374,0.11967961467207829
5.9189789075444485e-06,0.008710961502640724,0.12014331618927478
5.926992334275267e-06,0.008750933789735682,0.1206927071056911
5.935005761006084e-06,0.008787778611727859,0.12124209762231766
5.9430191877369025e-06,0.00881340282730847,0.12179148760400335
5.951032614467721e-06,0.008831493064658469,0.12234087711110997
5.959046041198538e-06,0.008857515721449105,0.12289026639951219
5.968115760456304e-06,0.008914244008951133,0.1235120736498478
5.9771854797140705e-06,0.008964569766208963,0.12413388034284659
5.986255198971837e-06,0.008984120182580213,0.12475568607278659
5.9953249182296035e-06,0.00898330347594889,0.1253774910112185
6.00439463748737e-06,0.009007308892725163,0.12599929590696576
6.012859856965878e-06,0.009086329984271724,0.12657965782976416
6.0213250764443875e-06,0.009151395251566385,0.12716001912283692
6.029790295922896e-06,0.00915944770172794,0.12774037907057842
6.038255515401405e-06,0.009129360447511448,0.1283207379852582
6.046720734879913e-06,0.00914193670730934,0.12890109720702103
6.053721040726269e-06,0.009212525472741095,0.12938102545338603
6.060721346572625e-06,0.009268491597702821,0.1298609531816033
6.067721652418981e-06,0.009289328003529551,0.13034088005075914
6.074721958265337e-06,0.009286317782156384,0.13082080624757217
6.081722264111693e-06,0.009302534196119816,0.13130073248639337
6.08815818960765e-06,0.009347987491295617,0.1317419662579459
6.094594115103606e-06,0.009386455002347138,0.1321831996784369
6.101030040599562e-06,0.009411708846665867,0.13262443264407212
6.107465966095519e-06,0.009427984948881418,0.13306566522472876
6.113901891591475e-06,0.009449983040860865,0.13350689766395543
6.121201358920503e-06,0.009489231247399865,0.13400733252125485
6.128500826249531e-06,0.009525043127246002,0.134507767016252
6.135800293578558e-06,0.009551443696631412,0.1350082010491538
6.143099760907586e-06,0.009571481343066512,0.13550863466993113
6.150399228236614e-06,0.009597227825341226,0.13600906807831892
6.159157180231441e-06,0.009647625665518689,0.1366094915021045
6.167915132226267e-06,0.009693525845463125,0.13720991440712346
6.176673084221094e-06,0.009719308702839657,0.13781033653305286
6.18543103621592e-06,0.00973171478743784,0.13841075799068994
6.194188988210747e-06,0.00975984486117143,0.13901117926195208
6.203249491567331e-06,0.00983763365184731,0.13963234296445132
6.212309994923915e-06,0.009903661543909204,0.14025350599061012
6.2213704982805e-06,0.009913566214075686,0.1408746676029384
6.230431001637084e-06,0.00988629664951901,0.14149582811474554
6.239491504993668e-06,0.009904113147864768,0.14211698889014043
6.247175589956198e-06,0.00999384903152778,0.14264378743081543
6.2548596749187284e-06,0.01006492206908216,0.1431705853115151
6.262543759881259e-06,0.010077226577967835,0.14369738186586384
6.27022784484379e-06,0.010049826645391446,0.144224177409547
6.27791192980632e-06,0.010060956128325582,0.14475097324031075
6.2843760978778365e-06,0.010123167912609587,0.14519413614713675
6.290840265949353e-06,0.01017316205410046,0.1456372986008415
6.297304434020869e-06,0.010199795224450137,0.1460804604160421
6.303768602092385e-06,0.010210545954414396,0.14652362171642902
6.310232770163902e-06,0.0102315146338533,0.1469667829347661
6.316898668551095e-06,0.010273678472744407,0.14742377416938876
6.323564566938289e-06,0.010310924404681177,0.14788076505385958
6.330230465325482e-06,0.010337882653160824,0.14833775549857947
6.336896363712676e-06,0.01035785946617429,0.14879474555794828
6.343562262099869e-06,0.010382837116208354,0.14925173543036485
6.351642511746948e-06,0.010428483899412644,0.14980568799969635
6.359722761394029e-06,0.010470535784851354,0.15035964011115643
6.3678030110411085e-06,0.010499422145601511,0.1509135916050521
